# Wavelength(nm) Flux(scaled to 1 @ 500nm)
9.100000 0.000114
9.400000 0.000153
9.600000 0.000185
9.800000 0.000221
10.000000 0.000261
10.200000 0.000307
10.400000 0.000358
10.600000 0.000415
10.800000 0.000477
11.000000 0.000546
11.400000 0.000702
11.800000 0.000885
12.100000 0.001040
12.500000 0.001270
12.700000 0.001396
12.800000 0.001461
13.100000 0.001667
13.200000 0.001739
13.400000 0.001888
13.700000 0.002123
14.000000 0.002373
14.300000 0.002635
14.700000 0.003004
15.100000 0.003394
15.500000 0.003802
15.900000 0.004226
16.200000 0.004553
16.600000 0.004998
17.000000 0.005456
17.300000 0.005804
17.700000 0.006270
18.000000 0.006623
18.200000 0.006860
18.600000 0.007332
19.100000 0.007922
19.400000 0.008274
19.800000 0.008741
20.200000 0.009199
20.500000 0.009538
21.000000 0.010092
21.600000 0.010740
22.000000 0.011154
22.300000 0.011458
22.700000 0.011854
23.000000 0.072699
23.400000 0.071422
24.000000 0.069705
24.600000 0.068384
25.200000 0.066931
25.700000 0.064553
26.000000 0.064641
26.400000 0.064289
26.900000 0.062748
27.400000 0.061251
27.900000 0.059533
28.400000 0.058212
29.000000 0.056451
29.600000 0.054337
30.100000 0.051563
30.800000 0.050506
31.800000 0.048833
32.800000 0.046411
33.800000 0.044033
34.800000 0.041779
35.700000 0.040009
36.600000 0.038318
37.500000 0.036592
38.500000 0.034624
39.500000 0.033104
40.500000 0.031585
41.400000 0.030229
42.200000 0.029027
43.000000 0.027913
44.100000 0.026570
45.100000 0.025346
46.000000 0.024258
47.000000 0.023166
48.000000 0.022166
49.000000 0.021136
50.000000 0.020269
50.600000 0.020057
51.200000 0.020343
52.000000 0.019648
53.000000 0.018855
54.000000 0.017935
55.000000 0.017248
56.000000 0.016755
57.000000 0.016129
58.000000 0.015456
59.000000 0.014927
60.000000 0.014328
61.000000 0.013756
62.000000 0.013364
63.000000 0.012871
64.000000 0.012439
65.000000 0.011990
65.800000 0.011616
66.500000 0.011387
67.500000 0.011022
68.500000 0.010586
69.500000 0.010304
70.500000 0.009894
71.600000 0.009626
72.600000 0.009326
73.500000 0.009071
74.500000 0.008776
75.500000 0.008503
76.500000 0.008217
77.500000 0.007996
78.500000 0.007754
79.500000 0.007534
80.500000 0.007327
81.500000 0.007125
82.500000 0.006931
83.500000 0.006667
84.500000 0.006548
85.500000 0.006367
86.500000 0.006209
87.500000 0.006050
88.500000 0.005892
89.500000 0.005738
90.500000 0.005575
91.500000 0.006715
92.500000 0.009124
93.500000 0.011312
94.500000 0.014588
95.500000 0.015852
96.500000 0.017657
97.500000 0.012021
98.500000 0.024897
99.500000 0.064465
100.500000 0.053236
101.500000 0.018639
102.500000 0.011339
103.500000 0.016702
104.500000 0.063496
105.500000 0.216072
106.500000 0.353148
107.500000 0.487450
108.500000 0.544254
109.500000 0.562748
110.500000 0.620872
111.500000 0.614707
112.500000 0.579921
113.500000 0.580361
114.500000 0.512109
115.500000 0.428622
116.500000 0.353545
117.500000 0.228930
118.500000 0.105152
119.500000 0.026587
120.500000 0.013074
121.500000 0.008463
122.500000 0.012783
123.500000 0.025363
124.500000 0.092867
125.500000 0.216645
126.500000 0.295421
127.500000 0.438177
128.500000 0.552620
129.500000 0.621312
130.500000 0.637164
131.500000 0.715984
132.500000 0.754293
133.500000 0.775870
134.500000 0.824306
135.500000 0.808454
136.500000 0.813738
137.500000 0.832673
138.500000 0.852488
139.500000 0.862616
140.500000 0.862175
141.500000 0.858212
142.500000 0.859974
143.500000 0.836636
144.200000 0.871422
144.700000 0.867900
145.500000 0.874505
146.500000 0.852048
147.500000 0.859533
148.500000 0.856891
149.500000 0.852488
150.500000 0.863937
151.200000 0.858653
151.700000 0.857772
152.500000 0.838838
153.500000 0.830031
154.500000 0.851167
155.500000 0.828710
156.500000 0.780713
157.500000 0.812417
158.500000 0.830471
159.500000 0.845883
160.500000 0.809335
161.500000 0.819463
162.500000 0.781594
163.500000 0.791722
164.500000 0.806693
165.500000 0.745046
166.500000 0.819463
167.200000 0.774989
167.700000 0.793483
168.500000 0.814619
169.500000 0.791722
170.500000 0.785997
171.500000 0.800528
172.500000 0.789520
173.500000 0.808895
174.500000 0.790841
175.500000 0.806253
176.500000 0.768384
177.500000 0.798767
178.500000 0.787759
179.500000 0.800528
180.500000 0.812858
181.500000 0.808014
182.500000 0.794364
183.500000 0.794804
184.500000 0.771026
185.500000 0.780273
186.500000 0.782475
187.500000 0.783355
188.500000 0.782034
189.500000 0.783355
190.500000 0.774989
191.500000 0.774989
192.500000 0.778512
193.500000 0.757376
194.500000 0.779833
195.500000 0.776310
196.700000 0.779833
197.600000 0.767944
198.400000 0.765742
199.500000 0.760458
200.500000 0.745927
201.500000 0.738882
202.500000 0.730075
203.500000 0.747248
204.500000 0.752092
205.500000 0.736240
206.500000 0.734478
207.400000 0.751211
207.800000 0.751651
208.500000 0.748569
209.500000 0.739762
210.500000 0.734038
211.500000 0.735799
212.500000 0.733157
213.500000 0.712461
214.500000 0.730515
215.500000 0.723470
216.500000 0.703655
217.500000 0.703655
218.500000 0.712021
219.500000 0.730515
220.500000 0.712902
221.500000 0.691325
222.500000 0.693087
223.500000 0.725231
224.500000 0.705416
225.500000 0.685601
226.500000 0.675033
227.500000 0.697490
228.500000 0.703655
229.500000 0.684280
230.500000 0.695729
231.500000 0.693087
232.500000 0.639366
233.500000 0.676354
234.500000 0.634963
235.500000 0.682519
236.500000 0.642008
237.500000 0.667107
238.500000 0.615148
239.500000 0.649494
240.500000 0.641127
241.500000 0.644650
242.500000 0.675473
243.500000 0.661823
244.500000 0.674152
245.500000 0.672831
246.500000 0.663584
247.500000 0.650374
248.500000 0.650815
249.500000 0.641568
250.500000 0.679877
251.300000 0.646411
251.800000 0.634522
252.500000 0.617790
253.500000 0.619111
254.500000 0.623954
255.500000 0.653897
256.500000 0.649053
257.500000 0.669749
258.500000 0.671070
259.500000 0.662704
260.500000 0.649494
261.500000 0.636724
262.500000 0.658741
263.500000 0.670189
264.500000 0.716424
265.500000 0.721268
266.500000 0.693967
267.500000 0.708939
268.500000 0.717305
269.500000 0.693087
270.500000 0.698371
271.500000 0.674152
272.500000 0.675473
273.500000 0.691766
274.500000 0.635403
275.500000 0.653016
276.500000 0.680317
277.500000 0.699251
278.500000 0.683399
279.500000 0.547776
280.500000 0.590048
281.500000 0.712461
282.500000 0.714663
283.500000 0.704976
284.500000 0.693527
285.500000 0.660062
286.500000 0.699692
287.500000 0.700132
288.500000 0.706737
289.500000 0.707618
291.000000 0.730075
293.000000 0.719066
295.000000 0.713342
297.000000 0.716424
299.000000 0.719947
301.000000 0.722589
303.000000 0.723470
305.000000 0.726112
307.000000 0.722149
309.000000 0.721708
311.000000 0.719507
313.000000 0.717305
315.000000 0.717745
317.000000 0.721708
319.000000 0.704095
321.000000 0.715103
323.000000 0.703214
325.000000 0.719947
327.000000 0.732277
329.000000 0.733157
331.000000 0.734038
332.200000 0.621312
332.300000 0.607221
332.400000 0.608102
332.500000 0.613827
332.600000 0.605460
332.700000 0.589168
332.800000 0.600616
332.900000 0.618230
333.000000 0.641127
333.100000 0.654337
333.200000 0.645531
333.300000 0.632761
333.400000 0.613386
333.500000 0.604579
333.600000 0.588287
333.700000 0.582122
333.800000 0.594892
333.900000 0.608983
334.000000 0.616909
334.100000 0.616028
334.200000 0.611625
334.300000 0.624835
334.400000 0.642008
334.500000 0.638045
334.600000 0.625716
334.700000 0.597974
334.800000 0.572435
334.900000 0.561427
335.000000 0.583003
335.100000 0.601937
335.200000 0.597094
335.300000 0.591369
335.400000 0.594011
335.500000 0.612946
335.600000 0.620872
335.700000 0.610304
335.800000 0.582122
335.900000 0.556143
336.000000 0.540291
336.100000 0.546015
336.200000 0.566711
336.300000 0.588287
336.400000 0.604579
336.500000 0.595332
336.600000 0.582122
336.700000 0.576838
336.800000 0.567151
336.900000 0.564069
337.000000 0.546455
337.100000 0.535447
337.200000 0.537208
337.300000 0.551739
337.400000 0.568472
337.500000 0.588727
337.600000 0.608542
337.700000 0.608102
337.800000 0.595332
337.900000 0.582563
338.000000 0.578159
338.100000 0.582122
338.200000 0.583443
338.300000 0.594452
338.400000 0.603258
338.500000 0.611185
338.600000 0.605460
338.700000 0.584324
338.800000 0.573756
338.900000 0.594452
339.000000 0.610744
339.100000 0.621753
339.200000 0.609423
339.300000 0.591369
339.400000 0.600616
339.500000 0.618230
339.600000 0.635403
339.700000 0.645090
339.800000 0.653897
339.900000 0.654778
340.000000 0.648173
340.100000 0.636284
340.200000 0.612065
340.300000 0.605460
340.400000 0.602818
340.500000 0.609863
340.600000 0.606781
340.700000 0.591369
340.800000 0.579480
340.900000 0.585205
341.000000 0.603258
341.100000 0.601497
341.200000 0.598855
341.300000 0.600176
341.400000 0.610304
341.500000 0.620432
341.600000 0.618670
341.700000 0.617349
341.800000 0.621312
341.900000 0.629238
342.000000 0.637605
342.100000 0.638045
342.200000 0.628358
342.300000 0.611185
342.400000 0.602818
342.500000 0.609863
342.600000 0.615148
342.700000 0.622193
342.800000 0.633642
342.900000 0.646852
343.000000 0.653897
343.100000 0.638926
343.200000 0.621753
343.300000 0.615148
343.400000 0.627477
343.500000 0.648173
343.600000 0.651255
343.700000 0.638926
343.800000 0.627037
343.900000 0.614267
344.000000 0.605020
344.100000 0.589608
344.200000 0.581242
344.300000 0.580801
344.400000 0.589608
344.500000 0.603699
344.600000 0.621753
344.700000 0.642008
344.800000 0.655658
344.900000 0.665346
345.000000 0.648173
345.100000 0.619991
345.200000 0.597094
345.300000 0.592690
345.400000 0.606781
345.500000 0.616469
345.600000 0.613386
345.700000 0.610744
345.800000 0.608983
345.900000 0.611185
346.000000 0.607221
346.100000 0.601057
346.200000 0.606341
346.300000 0.611625
346.400000 0.612946
346.500000 0.604139
346.600000 0.606341
346.700000 0.620872
346.800000 0.640247
346.900000 0.653016
347.000000 0.654778
347.100000 0.646411
347.200000 0.634963
347.300000 0.616909
347.400000 0.605020
347.500000 0.598415
347.600000 0.601057
347.700000 0.617349
347.800000 0.634963
347.900000 0.648173
348.000000 0.656539
348.100000 0.649494
348.200000 0.636284
348.300000 0.629679
348.400000 0.629679
348.500000 0.645090
348.600000 0.660502
348.700000 0.660062
348.800000 0.648613
348.900000 0.630119
349.000000 0.616909
349.100000 0.621312
349.200000 0.635403
349.300000 0.635403
349.400000 0.630119
349.500000 0.620432
349.600000 0.609423
349.700000 0.616469
349.800000 0.616909
349.900000 0.623074
350.000000 0.622633
350.100000 0.617349
350.200000 0.618670
350.300000 0.617349
350.400000 0.620872
350.500000 0.621312
350.600000 0.621312
350.700000 0.621312
350.800000 0.615588
350.900000 0.611185
351.000000 0.607662
351.100000 0.606781
351.200000 0.608102
351.300000 0.607221
351.400000 0.608983
351.500000 0.618230
351.600000 0.634522
351.700000 0.644210
351.800000 0.643769
351.900000 0.629238
352.000000 0.617790
352.100000 0.611185
352.200000 0.607662
352.300000 0.606341
352.400000 0.598855
352.500000 0.592250
352.600000 0.598415
352.700000 0.608983
352.800000 0.623514
352.900000 0.636724
353.000000 0.648613
353.100000 0.656979
353.200000 0.655218
353.300000 0.645971
353.400000 0.641127
353.500000 0.638926
353.600000 0.643769
353.700000 0.648173
353.800000 0.649053
353.900000 0.655218
354.000000 0.657860
354.100000 0.654778
354.200000 0.657860
354.300000 0.665346
354.400000 0.669309
354.500000 0.667988
354.600000 0.663144
354.700000 0.655658
354.800000 0.652576
354.900000 0.653457
355.000000 0.660502
355.100000 0.673712
355.200000 0.669309
355.300000 0.654778
355.400000 0.646411
355.500000 0.647732
355.600000 0.656539
355.700000 0.670189
355.800000 0.674152
355.900000 0.670189
356.000000 0.664905
356.100000 0.661823
356.200000 0.661823
356.300000 0.652136
356.400000 0.637605
356.500000 0.628798
356.600000 0.626156
356.700000 0.627477
356.800000 0.621312
356.900000 0.613386
357.000000 0.608983
357.100000 0.603258
357.200000 0.601057
357.300000 0.597974
357.400000 0.599295
357.500000 0.608542
357.600000 0.616909
357.700000 0.627477
357.800000 0.634963
357.900000 0.627037
358.000000 0.616028
358.100000 0.604579
358.200000 0.602818
358.300000 0.609423
358.400000 0.600176
358.500000 0.583003
358.600000 0.561867
358.700000 0.554822
358.800000 0.567591
358.900000 0.591810
359.000000 0.611185
359.100000 0.617790
359.200000 0.616028
359.300000 0.615588
359.400000 0.620432
359.500000 0.632761
359.600000 0.642448
359.700000 0.644650
359.800000 0.644650
359.900000 0.649053
360.000000 0.651695
360.100000 0.640687
360.200000 0.627917
360.300000 0.618670
360.400000 0.621753
360.500000 0.627917
360.600000 0.629238
360.700000 0.623514
360.800000 0.616909
360.900000 0.620432
361.000000 0.622633
361.100000 0.625716
361.200000 0.630119
361.300000 0.632321
361.400000 0.640247
361.500000 0.659181
361.600000 0.661383
361.700000 0.652576
361.800000 0.635403
361.900000 0.623954
362.000000 0.635843
362.100000 0.646852
362.200000 0.651695
362.300000 0.652136
362.400000 0.656979
362.500000 0.673272
362.600000 0.691325
362.700000 0.704095
362.800000 0.695288
362.900000 0.676354
363.000000 0.648613
363.100000 0.631440
363.200000 0.637605
363.300000 0.659181
363.400000 0.670189
363.500000 0.666226
363.600000 0.661383
363.700000 0.663144
363.800000 0.671951
363.900000 0.680757
364.000000 0.681638
364.100000 0.674593
364.200000 0.661383
364.300000 0.650374
364.400000 0.643769
364.500000 0.642448
364.600000 0.640687
364.700000 0.641127
364.800000 0.642889
364.900000 0.642008
365.000000 0.642889
365.100000 0.647732
365.200000 0.658741
365.300000 0.666667
365.400000 0.676794
365.500000 0.686922
365.600000 0.694848
365.700000 0.697050
365.800000 0.693527
365.900000 0.693087
366.000000 0.692206
366.100000 0.683399
366.200000 0.676794
366.300000 0.673272
366.400000 0.675033
366.500000 0.680317
366.600000 0.680757
366.700000 0.678556
366.800000 0.671510
366.900000 0.664025
367.000000 0.664025
367.100000 0.671510
367.200000 0.683399
367.300000 0.689124
367.400000 0.685161
367.500000 0.678115
367.600000 0.663584
367.700000 0.653016
367.800000 0.649053
367.900000 0.651255
368.000000 0.657860
368.100000 0.659621
368.200000 0.656979
368.300000 0.654778
368.400000 0.647732
368.500000 0.636284
368.600000 0.634082
368.700000 0.641568
368.800000 0.664025
368.900000 0.685161
369.000000 0.683840
369.100000 0.673712
369.200000 0.670189
369.300000 0.676354
369.400000 0.684720
369.500000 0.689124
369.600000 0.678115
369.700000 0.665346
369.800000 0.678115
369.900000 0.708058
370.000000 0.741524
370.100000 0.734478
370.200000 0.689564
370.300000 0.634082
370.400000 0.605900
370.500000 0.612946
370.600000 0.642889
370.700000 0.676794
370.800000 0.693967
370.900000 0.685161
371.000000 0.652136
371.100000 0.624835
371.200000 0.611625
371.300000 0.634963
371.400000 0.686041
371.500000 0.738001
371.600000 0.774989
371.700000 0.792162
371.800000 0.773668
371.900000 0.717745
372.000000 0.638926
372.100000 0.577719
372.200000 0.561427
372.300000 0.596213
372.400000 0.669749
372.500000 0.729635
372.600000 0.770145
372.700000 0.797446
372.800000 0.811977
372.900000 0.817701
373.000000 0.801409
373.100000 0.756495
373.200000 0.676794
373.300000 0.600616
373.400000 0.538970
373.500000 0.528402
373.600000 0.568032
373.700000 0.638485
373.800000 0.715544
373.900000 0.797446
374.000000 0.842801
374.100000 0.870982
374.200000 0.871422
374.300000 0.858212
374.400000 0.830471
374.500000 0.797446
374.600000 0.759137
374.700000 0.712461
374.800000 0.649053
374.900000 0.591810
375.000000 0.564509
375.100000 0.571995
375.200000 0.616028
375.300000 0.710700
375.400000 0.791281
375.500000 0.841920
375.600000 0.868340
375.700000 0.872743
375.800000 0.870982
375.900000 0.876266
376.000000 0.888155
376.100000 0.901805
376.200000 0.904007
376.300000 0.896081
376.400000 0.881550
376.500000 0.852928
376.600000 0.817701
376.700000 0.765302
376.800000 0.687362
376.900000 0.619551
377.000000 0.560546
377.100000 0.557023
377.200000 0.601497
377.300000 0.674593
377.400000 0.732717
377.500000 0.789960
377.600000 0.834875
377.700000 0.884632
377.800000 0.936592
377.900000 0.974901
378.000000 1.013650
378.100000 1.036548
378.200000 1.049317
378.300000 1.055923
378.400000 1.058565
378.500000 1.048877
378.600000 1.037869
378.700000 1.013210
378.800000 0.993395
378.900000 0.977983
379.000000 0.957288
379.100000 0.933509
379.200000 0.891678
379.300000 0.845443
379.400000 0.785117
379.500000 0.715103
379.600000 0.644210
379.700000 0.571114
379.800000 0.542052
379.900000 0.564949
380.000000 0.638045
380.100000 0.721708
380.200000 0.808454
380.300000 0.856451
380.400000 0.907970
380.500000 0.937913
380.600000 0.967415
380.700000 1.003082
380.800000 1.032585
380.900000 1.067812
381.000000 1.088067
381.100000 1.098635
381.200000 1.090709
381.300000 1.079260
381.400000 1.068692
381.500000 1.070894
381.600000 1.089388
381.700000 1.109203
381.800000 1.111405
381.900000 1.084985
382.000000 1.064729
382.100000 1.055482
382.200000 1.055042
382.300000 1.046235
382.400000 1.012770
382.500000 0.981946
382.600000 0.952444
382.700000 0.925143
382.800000 0.888595
382.900000 0.851607
383.000000 0.814619
383.100000 0.758256
383.200000 0.701013
383.300000 0.617349
383.400000 0.549538
383.500000 0.509467
383.600000 0.512550
383.700000 0.552180
383.800000 0.616469
383.900000 0.676794
384.000000 0.739762
384.100000 0.811977
384.200000 0.874505
384.300000 0.940995
384.400000 0.982387
384.500000 1.018934
384.600000 1.051519
384.700000 1.078820
384.800000 1.101717
384.900000 1.109643
385.000000 1.117129
385.100000 1.136504
385.200000 1.163804
385.300000 1.187142
385.400000 1.190665
385.500000 1.181858
385.600000 1.170850
385.700000 1.163364
385.800000 1.158520
385.900000 1.163364
386.000000 1.178336
386.100000 1.195949
386.200000 1.210040
386.300000 1.206957
386.400000 1.195949
386.500000 1.185821
386.600000 1.187583
386.700000 1.192426
386.800000 1.196830
386.900000 1.194188
387.000000 1.173492
387.100000 1.152356
387.200000 1.121092
387.300000 1.108763
387.400000 1.104359
387.500000 1.105240
387.600000 1.094672
387.700000 1.056803
387.800000 1.027741
387.900000 1.005284
388.000000 0.992074
388.100000 0.977103
388.200000 0.944958
388.300000 0.909291
388.400000 0.856891
388.500000 0.797446
388.600000 0.720828
388.700000 0.631880
388.800000 0.569353
388.900000 0.544254
389.000000 0.576838
389.100000 0.649494
389.200000 0.725231
389.300000 0.778512
389.400000 0.829150
389.500000 0.867019
389.600000 0.915015
389.700000 0.956847
389.800000 0.989432
389.900000 1.014971
390.000000 1.033465
390.100000 1.062528
390.200000 1.086306
390.300000 1.107001
390.400000 1.116248
390.500000 1.124615
390.600000 1.142668
390.700000 1.167768
390.800000 1.198591
390.900000 1.225011
391.000000 1.239982
391.100000 1.245707
391.200000 1.243065
391.300000 1.235139
391.400000 1.225011
391.500000 1.225892
391.600000 1.234698
391.700000 1.235139
391.800000 1.233377
391.900000 1.229414
392.000000 1.228534
392.100000 1.229414
392.200000 1.228974
392.300000 1.235139
392.400000 1.236019
392.500000 1.233377
392.600000 1.217085
392.700000 1.194628
392.800000 1.156759
392.900000 1.113166
393.000000 1.049758
393.100000 0.955967
393.200000 0.841920
393.300000 0.746808
393.400000 0.740643
393.500000 0.822545
393.600000 0.938353
393.700000 1.045354
393.800000 1.131220
393.900000 1.173492
394.000000 1.194628
394.100000 1.207838
394.200000 1.210920
394.300000 1.214443
394.400000 1.214883
394.500000 1.211361
394.600000 1.209159
394.700000 1.202994
394.800000 1.194188
394.900000 1.186702
395.000000 1.181858
395.100000 1.174373
395.200000 1.167768
395.300000 1.166006
395.400000 1.157199
395.500000 1.137825
395.600000 1.117129
395.700000 1.096874
395.800000 1.087186
395.900000 1.070894
396.000000 1.036988
396.100000 0.996037
396.200000 0.943197
396.300000 0.898723
396.400000 0.840599
396.500000 0.756055
396.600000 0.650815
396.700000 0.518714
396.800000 0.428974
396.900000 0.380493
397.000000 0.406957
397.100000 0.483487
397.200000 0.589168
397.300000 0.676354
397.400000 0.762660
397.500000 0.821224
397.600000 0.880669
397.700000 0.931748
397.800000 0.976662
